# ORB-slam3's format: time[ns], wx(rad/s), wy, wz, ax(m/s2), ay, az
3317334333,-0.000094,0.000453,-0.001136,0.653151,0.009957,10.638764
3327334333,-0.000307,0.000266,-0.001230,0.681806,-0.054190,10.480308
3337334333,-0.000465,0.000147,-0.001372,0.691321,-0.034870,10.304001
3347334333,-0.000672,0.000024,-0.001405,0.712793,-0.027203,10.215809
3357334333,-0.000846,-0.000105,-0.001392,0.721889,-0.014235,10.078255
3367334333,-0.001024,-0.000174,-0.001470,0.685674,-0.061411,9.935055
3377334333,-0.001056,-0.000361,-0.001360,0.727390,0.002590,9.759933
3387334333,-0.001125,-0.000377,-0.001247,0.709016,-0.043355,9.594231
3397334333,-0.001174,-0.000462,-0.001242,0.765954,-0.071790,9.441166
3407334333,-0.001188,-0.000540,-0.001024,0.762962,-0.067492,9.297741
3417334333,-0.001198,-0.000484,-0.000844,0.757012,-0.071860,9.098074
3427334333,-0.001116,-0.000538,-0.000640,0.599424,-0.029135,9.102745
3437334333,-0.001104,-0.000548,-0.000384,0.421632,-0.037544,9.172797
3447334333,-0.001019,-0.000541,-0.000238,0.243836,-0.060434,9.229692
3457334333,-0.000925,-0.000469,-0.000039,0.041093,-0.054369,9.303454
3467334333,-0.000796,-0.000403,0.000058,-0.177555,-0.070777,9.385555
3477334333,-0.000625,-0.000423,0.000156,-0.392750,-0.040190,9.401385
3487334333,-0.000446,-0.000318,0.000282,-0.579304,-0.067473,9.489995
3497334333,-0.000179,-0.000210,0.000363,-0.825192,-0.069052,9.546076
3507334333,0.000072,-0.000060,0.000469,-1.018171,-0.106390,9.581049
3517334333,0.000267,0.000080,0.000505,-1.226399,-0.146370,9.635422
3527334333,0.000540,0.000233,0.000530,-1.329501,-0.101336,9.683240
3537334333,0.000791,0.000398,0.000556,-1.317012,-0.100777,9.785771
3547334333,0.000997,0.000545,0.000526,-1.223771,-0.095417,9.834353
3557334333,0.001224,0.000793,0.000519,-1.204509,-0.089160,9.872880
3567334333,0.001401,0.000827,0.000554,-1.137932,-0.047560,9.943923
3577334333,0.001618,0.000899,0.000520,-1.085351,-0.056974,10.035119
3587334333,0.001737,0.001108,0.000486,-1.062181,-0.010020,10.069106
3597334333,0.001893,0.001124,0.000437,-0.984995,-0.057407,10.130212
3607334333,0.001956,0.001218,0.000481,-0.954410,-0.030962,10.167381
3617334333,0.002008,0.001290,0.000377,-0.906358,-0.001071,10.253482
3627334333,0.002084,0.001360,0.000387,-0.857118,-0.002871,10.354662
3637334333,0.002040,0.001402,0.000293,-0.766859,-0.023348,10.235493
3647334333,0.001999,0.001397,0.000273,-0.618617,-0.027695,10.150883
3657334333,0.001962,0.001442,0.000229,-0.508331,0.011491,10.062676
3667334333,0.001911,0.001362,0.000183,-0.415413,0.024441,9.979962
3677334333,0.001788,0.001312,0.000218,-0.288454,0.061473,9.874081
3687334333,0.001607,0.001139,0.000199,-0.170252,0.059116,9.762854
3697334333,0.001442,0.001075,0.000106,-0.105468,0.041646,9.701974
3707334333,0.001246,0.000941,0.000158,0.082218,0.065289,9.592750
3717334333,0.000966,0.000793,0.000207,0.154733,0.104309,9.558505
3727334333,0.000701,0.000502,0.000209,0.286731,0.124263,9.418576
3737334333,0.000449,0.000385,0.000265,0.334331,0.072241,9.372031
3747334333,0.000128,0.000129,0.000239,0.339246,0.083271,9.413427
3757334333,-0.000137,-0.000053,0.000235,0.362478,0.100806,9.447622
3767334333,-0.000390,-0.000223,0.000239,0.382041,0.103374,9.457177
3777334333,-0.000691,-0.000361,0.000206,0.347371,0.101378,9.457285
3787334333,-0.000808,-0.000559,0.000140,0.344453,0.122426,9.488541
3797334333,-0.001049,-0.000734,0.000123,0.373332,0.077385,9.468554
3807334333,-0.001259,-0.000781,0.000024,0.405753,0.081425,9.495066
3817334333,-0.001386,-0.000876,-0.000037,0.393133,0.064583,9.461912
3827334333,-0.001535,-0.001020,-0.000126,0.349536,0.052686,9.494748
3837334333,-0.001625,-0.001117,-0.000229,0.378529,0.061715,9.476892
3847334333,-0.001744,-0.001220,-0.000354,0.422275,0.032944,9.514771
3857334333,-0.001865,-0.001223,-0.000442,0.397926,0.030184,9.580096
3867334333,-0.001872,-0.001151,-0.000460,0.425277,0.012034,9.672370
3877334333,-0.001970,-0.001156,-0.000641,0.434462,0.004043,9.673232
3887334333,-0.001882,-0.001053,-0.000596,0.438996,-0.011535,9.744189
3897334333,-0.001914,-0.000944,-0.000612,0.460818,-0.046207,9.763825
3907334333,-0.001881,-0.000742,-0.000632,0.492784,-0.045132,9.859386
3917334333,-0.001812,-0.000632,-0.000706,0.453315,-0.060164,9.894188
3927334333,-0.001686,-0.000411,-0.000694,0.460671,-0.067110,9.905522
3937334333,-0.001499,-0.000142,-0.000626,0.470477,-0.052137,9.941273
3947334333,-0.001315,0.000084,-0.000579,0.474994,-0.064588,10.006118
3957334333,-0.001179,0.000328,-0.000560,0.476562,-0.086210,10.084405
3967334333,-0.000997,0.000481,-0.000487,0.429158,-0.067797,10.098958
3977334333,-0.000841,0.000655,-0.000431,0.462517,-0.044543,10.215080
3987334333,-0.000590,0.000659,-0.000306,0.473626,-0.051111,10.222892
3997334333,-0.000455,0.000719,-0.000308,0.465538,-0.122858,10.267966
4007334333,-0.000256,0.000661,-0.000128,0.467906,-0.080821,10.408489
4017334333,-0.000051,0.000694,-0.000081,0.461266,-0.099570,10.461734
4027334333,0.000195,0.000547,0.000103,0.477552,-0.101831,10.544408
4037334333,0.000425,0.000345,0.000262,0.476723,-0.069662,10.636121
4047334333,0.000631,0.000252,0.000379,0.490978,-0.061113,10.571848
4057334333,0.000825,-0.000045,0.000508,0.438740,-0.089114,10.515760
4067334333,0.000983,-0.000191,0.000584,0.448336,-0.079751,10.370281
4077334333,0.001165,-0.000410,0.000661,0.483439,-0.049344,10.200731
4087334333,0.001177,-0.000629,0.000855,0.481618,-0.050179,10.089865
4097334333,0.001226,-0.000829,0.000940,0.493613,-0.046611,9.964804
4107334333,0.001299,-0.000961,0.001002,0.510267,-0.008896,9.847969
4117334333,0.001265,-0.001185,0.001002,0.514124,-0.001319,9.697021
4127334333,0.001181,-0.001340,0.001005,0.538520,-0.028909,9.560631
4137334333,0.001026,-0.001611,0.001116,0.525652,0.016754,9.411719
4147334333,0.000912,-0.001770,0.001107,0.549249,-0.020065,9.256188
4157334333,0.000792,-0.001944,0.001039,0.572487,-0.015842,9.291005
4167334333,0.000640,-0.002023,0.001040,0.537844,-0.034630,9.336067
4177334333,0.000475,-0.002023,0.001021,0.597782,0.006142,9.395507
4187334333,0.000371,-0.002065,0.000942,0.622262,-0.003441,9.375849
4197334333,0.000205,-0.001988,0.000882,0.598473,0.008417,9.452727
4207334333,0.000126,-0.001863,0.000828,0.643432,0.024880,9.462142
4217334333,0.000023,-0.001689,0.000737,0.642891,0.046074,9.464765
4227334333,-0.000090,-0.001398,0.000590,0.662971,0.070820,9.480580
4237334333,-0.000158,-0.001163,0.000437,0.633011,0.024090,9.500200
4247334333,-0.000244,-0.000813,0.000321,0.663700,-0.015550,9.481098
4257334333,-0.000369,-0.000435,0.000224,0.677946,-0.015016,9.542746
4267334333,-0.000312,-0.000074,0.000090,0.690107,0.006431,9.641260
4277334333,-0.000342,0.000251,-0.000033,0.640111,-0.014750,9.820300
4287334333,-0.000386,0.000585,-0.000129,0.698384,0.001228,9.952268
4297334333,-0.000319,0.000857,-0.000218,0.659607,0.008499,10.057216
4307334333,-0.000303,0.001103,-0.000343,0.633612,-0.023213,10.193299
4317334333,-0.000188,0.001406,-0.000417,0.666808,-0.051360,10.311854
4327334333,-0.000020,0.001578,-0.000465,0.692236,-0.041568,10.424644
4337334333,0.000132,0.001680,-0.000527,0.687405,-0.007768,10.590852
4347334333,0.000247,0.001881,-0.000574,0.697139,-0.042860,10.754852
4357334333,0.000398,0.001954,-0.000662,0.643602,0.037861,10.800784
4367334333,0.000614,0.002061,-0.000628,0.653741,0.004906,10.656706
4377334333,0.000865,0.002062,-0.000668,0.633967,-0.015705,10.523172
4387334333,0.000939,0.002095,-0.000573,0.628068,-0.046013,10.383246
4397334333,0.000985,0.002077,-0.000588,0.636391,-0.013273,10.233920
4407334333,0.001180,0.002067,-0.000520,0.605304,0.029659,10.091556
4417334333,0.001208,0.001966,-0.000523,0.619941,0.024676,10.015456
4427334333,0.001217,0.001807,-0.000346,0.618624,-0.012379,9.844308
4437334333,0.001278,0.001778,-0.000274,0.602354,-0.011353,9.727574
4447334333,0.001241,0.001573,-0.000206,0.569683,0.044982,9.641571
4457334333,0.001256,0.001314,-0.000067,0.610123,0.063834,9.540226
4467334333,0.001191,0.001144,0.000052,0.532007,0.040437,9.463920
4477334333,0.001134,0.000936,0.000199,0.466429,0.115227,9.361764
4487334333,0.001046,0.000726,0.000289,0.408191,0.085798,9.214934
4497334333,0.000898,0.000526,0.000346,0.358383,0.115635,9.136376
4507334333,0.000784,0.000348,0.000367,0.283660,0.078929,9.077199
4517334333,0.000577,0.000163,0.000414,0.227568,0.097072,8.947084
4527334333,0.000380,-0.000027,0.000409,0.203461,0.095406,8.835706
4537334333,0.000162,-0.000242,0.000331,0.137075,0.129754,8.785302
4547334333,-0.000084,-0.000328,0.000327,0.088946,0.079988,8.646801
4557334333,-0.000338,-0.000538,0.000249,0.037018,0.083824,8.578771
4567334333,-0.000613,-0.000637,0.000089,-0.167082,0.067827,8.591660
4577334333,-0.000844,-0.000745,-0.000034,-0.395131,0.092470,8.781039
4587334333,-0.001092,-0.000849,-0.000020,-0.614153,0.051144,8.944050
4597334333,-0.001263,-0.000833,-0.000160,-0.894623,0.059099,9.162721
4607334333,-0.001414,-0.000941,-0.000257,-1.133296,0.027354,9.274576
4617334333,-0.001605,-0.000948,-0.000414,-1.368992,0.022177,9.426457
4627334333,-0.001699,-0.000907,-0.000480,-1.591134,0.039474,9.567191
4637334333,-0.001771,-0.000831,-0.000591,-1.842260,0.027281,9.746653
4647334333,-0.001891,-0.000714,-0.000719,-2.017746,0.018899,9.915112
4657334333,-0.001919,-0.000592,-0.000816,-2.326780,-0.020263,9.972310
4667334333,-0.001882,-0.000402,-0.000948,-2.441441,0.001522,10.136437
4677334333,-0.001872,-0.000335,-0.001009,-2.168206,-0.020035,10.181892
4687334333,-0.001818,-0.000114,-0.001121,-1.884109,-0.059444,10.232236
4697334333,-0.001721,-0.000065,-0.001110,-1.612251,-0.019310,10.317491
4707334333,-0.001639,0.000081,-0.001157,-1.305046,-0.101225,10.373872
4717334333,-0.001574,0.000183,-0.001010,-1.051094,-0.112590,10.466317
4727334333,-0.001423,0.000223,-0.001003,-0.804087,-0.108680,10.526001
4737334333,-0.001214,0.000258,-0.000918,-0.519061,-0.142990,10.542142
4747334333,-0.000971,0.000248,-0.000797,-0.227651,-0.084089,10.666618
4757334333,-0.000741,0.000273,-0.000593,0.014476,-0.108944,10.692969
4767334333,-0.000531,0.000292,-0.000371,0.304785,-0.098479,10.789471
4777334333,-0.000268,0.000259,-0.000227,0.345826,-0.072689,10.664441
4787334333,0.000041,0.000195,0.000006,0.334140,-0.097685,10.560341
4797334333,0.000219,0.000129,0.000153,0.371243,-0.073622,10.402006
4807334333,0.000469,0.000135,0.000282,0.329285,-0.079097,10.296382
4817334333,0.000716,0.000065,0.000446,0.380978,-0.064488,10.181475
4827334333,0.000864,-0.000035,0.000562,0.359087,-0.084393,10.092124
4837334333,0.001003,-0.000063,0.000687,0.381749,-0.041795,9.962520
4847334333,0.001167,-0.000102,0.000794,0.368052,-0.021157,9.855295
4857334333,0.001223,-0.000243,0.000924,0.368402,-0.048815,9.704178
4867334333,0.001412,-0.000377,0.000979,0.364630,-0.021763,9.587865
4877334333,0.001435,-0.000500,0.001048,0.376930,-0.026330,9.561932
4887334333,0.001524,-0.000539,0.001009,0.393933,0.030711,9.539346
4897334333,0.001522,-0.000620,0.001010,0.385445,0.005615,9.547770
4907334333,0.001547,-0.000704,0.001049,0.410211,0.040349,9.518302
4917334333,0.001597,-0.000677,0.000929,0.406795,0.056744,9.524275
4927334333,0.001647,-0.000711,0.000920,0.390142,0.054588,9.526821
4937334333,0.001616,-0.000670,0.000744,0.407407,0.038237,9.555555
4947334333,0.001655,-0.000647,0.000614,0.446759,0.069670,9.507758
4957334333,0.001566,-0.000567,0.000374,0.409048,0.062217,9.512598
4967334333,0.001612,-0.000431,0.000159,0.424552,0.062139,9.512980
4977334333,0.001460,-0.000322,-0.000042,0.430837,0.039634,9.475203
4987334333,0.001416,-0.000227,-0.000269,0.411377,0.066356,9.551635
4997334333,0.001312,-0.000132,-0.000424,0.455575,0.030319,9.606749
5007334333,0.001198,-0.000025,-0.000591,0.438176,0.040101,9.677907
5017334333,0.000976,0.000068,-0.000659,0.426855,0.035596,9.758137
5027334333,0.000805,0.000174,-0.000683,0.466188,0.040017,9.848640
5037334333,0.000639,0.000173,-0.000704,0.457347,0.039038,9.869560
5047334333,0.000405,0.000214,-0.000671,0.465690,0.026268,9.978366
5057334333,0.000194,0.000284,-0.000570,0.438606,0.078685,10.077002
5067334333,-0.000074,0.000213,-0.000404,0.459842,0.026107,10.116432
5077334333,-0.000364,0.000239,-0.000303,0.423019,0.122413,10.175691
5087334333,-0.000703,0.000243,-0.000013,0.432533,0.048284,10.197185
5097334333,-0.001030,0.000232,0.000145,0.439306,0.101942,10.177540
5107334333,-0.001196,0.000169,0.000343,0.451914,0.117558,10.108576
5117334333,-0.001337,0.000150,0.000461,0.445846,0.102372,10.051755
5127334333,-0.001471,0.000174,0.000542,0.416642,0.083964,10.014799
5137334333,-0.001588,0.000114,0.000628,0.502400,0.078459,9.976346
5147334333,-0.001595,0.000166,0.000667,0.502127,0.094811,9.924958
5157334333,-0.001569,0.000212,0.000742,0.461122,0.070326,9.854520
5167334333,-0.001550,0.000171,0.000821,0.441641,0.061227,9.808747
5177334333,-0.001470,0.000159,0.000702,0.422891,0.050740,9.794094
5187334333,-0.001381,0.000176,0.000720,0.414039,0.011009,9.746776
5197334333,-0.001237,0.000143,0.000673,0.472493,0.037966,9.718702
5207334333,-0.001118,0.000181,0.000625,0.462602,0.038233,9.680532
5217334333,-0.000903,0.000153,0.000522,0.467764,0.012507,9.652989
5227334333,-0.000717,0.000167,0.000397,0.451479,-0.008359,9.623170
5237334333,-0.000626,0.000208,0.000307,0.465496,-0.011671,9.608310
5247334333,-0.000407,0.000173,0.000195,0.482358,0.035613,9.558221
5257334333,-0.000287,0.000172,0.000022,0.473450,-0.005351,9.528582
5267334333,-0.000130,0.000235,-0.000079,0.424957,-0.006353,9.495980
5277334333,0.000064,0.000207,-0.000275,0.443563,-0.008173,9.477954
5287334333,0.000227,0.000233,-0.000383,0.434070,-0.009509,9.446863
5297334333,0.000427,0.000237,-0.000558,0.436734,-0.060373,9.478134
5307334333,0.000495,0.000258,-0.000651,0.456496,-0.054509,9.571361
5317334333,0.000574,0.000221,-0.000647,0.450331,-0.075978,9.635134
5327334333,0.000563,0.000210,-0.000685,0.469389,-0.045708,9.715530
5337334333,0.000671,0.000129,-0.000655,0.491615,-0.120252,9.712595
5347334333,0.000661,0.000046,-0.000541,0.450989,-0.089278,9.808094
5357334333,0.000585,0.000006,-0.000412,0.489079,-0.092459,9.863378
5367334333,0.000543,-0.000069,-0.000231,0.471121,-0.102195,9.932028
5377334333,0.000334,-0.000291,0.000078,0.491183,-0.042404,10.010215
5387334333,0.000206,-0.000461,0.000332,0.534885,-0.020434,10.095952
5397334333,-0.000019,-0.000598,0.000692,0.485705,0.043375,10.089191
5407334333,-0.000158,-0.000645,0.000991,0.526823,0.050525,9.992374
5417334333,-0.000327,-0.000746,0.001250,0.459413,0.060137,9.974871
5427334333,-0.000456,-0.000829,0.001441,0.515879,0.060298,9.939288
5437334333,-0.000452,-0.000940,0.001639,0.514254,0.053193,9.860426
5447334333,-0.000424,-0.001026,0.001724,0.500568,0.087257,9.851975
5457334333,-0.000367,-0.001068,0.001815,0.529476,0.093982,9.782492
5467334333,-0.000287,-0.001036,0.001924,0.532429,0.048991,9.673402
5477334333,-0.000259,-0.001040,0.001863,0.543451,0.046129,9.600593
5487334333,-0.000055,-0.001056,0.001850,0.512376,0.029072,9.552490
5497334333,0.000105,-0.001056,0.001713,0.565891,0.000786,9.545625
5507334333,0.000249,-0.000948,0.001688,0.517956,0.022139,9.619405
5517334333,0.000377,-0.000895,0.001523,0.555629,-0.008392,9.684754
5527334333,0.000515,-0.000812,0.001344,0.576557,0.009736,9.753721
5537334333,0.000528,-0.000670,0.001178,0.596660,0.031639,9.807283
5547334333,0.000573,-0.000490,0.000986,0.582518,0.074762,9.885129
5557334333,0.000580,-0.000432,0.000672,0.611495,0.035395,9.978503
5567334333,0.000502,-0.000271,0.000340,0.597173,0.019068,10.018565
5577334333,0.000457,-0.000079,0.000067,0.637564,0.058915,10.077159
5587334333,0.000356,0.000112,-0.000215,0.626347,0.086133,10.128587
5597334333,0.000214,0.000323,-0.000602,0.623845,0.000731,10.205992
5607334333,0.000046,0.000572,-0.001015,0.633904,-0.009200,10.161445
5617334333,-0.000073,0.000752,-0.001346,0.648103,-0.024230,10.167490
5627334333,-0.000233,0.000931,-0.001549,0.629274,-0.073374,10.148396
5637334333,-0.000327,0.001083,-0.001758,0.583064,-0.088138,10.127450
5647334333,-0.000430,0.001189,-0.001872,0.613449,-0.110753,10.111732
5657334333,-0.000629,0.001332,-0.001952,0.606312,-0.103480,10.118801
5667334333,-0.000753,0.001438,-0.002030,0.617112,-0.135628,10.116658
5677334333,-0.000979,0.001450,-0.002001,0.573080,-0.118051,10.074024
5687334333,-0.001032,0.001472,-0.001888,0.618347,-0.093409,10.090412
5697334333,-0.001136,0.001520,-0.001697,0.571205,-0.071512,10.100529
5707334333,-0.001360,0.001514,-0.001560,0.527986,-0.044444,10.037649
5717334333,-0.001417,0.001442,-0.001296,0.556332,-0.020619,9.923240
5727334333,-0.001543,0.001370,-0.001114,0.577519,-0.016558,9.871250
5737334333,-0.001561,0.001313,-0.000962,0.548133,-0.032368,9.752143
5747334333,-0.001529,0.001254,-0.000755,0.528174,-0.059827,9.655484
5757334333,-0.001413,0.001074,-0.000494,0.546995,-0.068216,9.572857
5767334333,-0.001306,0.000978,-0.000367,0.544539,-0.066181,9.455565
5777334333,-0.001148,0.000847,-0.000134,0.527874,-0.072212,9.325128
5787334333,-0.000966,0.000661,0.000060,0.575927,-0.066558,9.272106
5797334333,-0.000746,0.000464,0.000262,0.554725,-0.080629,9.175144
5807334333,-0.000461,0.000247,0.000410,0.473181,-0.093676,9.132324
5817334333,-0.000201,0.000046,0.000543,0.160375,-0.037639,9.143393
5827334333,0.000087,-0.000154,0.000710,-0.130742,-0.051252,9.257615
5837334333,0.000292,-0.000279,0.000711,-0.461511,-0.048784,9.249457
5847334333,0.000578,-0.000439,0.000785,-0.777969,0.002268,9.347629
5857334333,0.000735,-0.000590,0.000718,-1.089863,0.003836,9.361666
5867334333,0.000944,-0.000690,0.000683,-1.422940,-0.008026,9.375884
5877334333,0.001070,-0.000803,0.000527,-1.691939,-0.009671,9.418084
5887334333,0.001274,-0.000863,0.000310,-2.032784,-0.014871,9.470242
5897334333,0.001419,-0.000971,0.000104,-2.358089,0.018095,9.470045
5907334333,0.001474,-0.000951,-0.000149,-2.623967,-0.019326,9.498323
5917334333,0.001555,-0.001005,-0.000471,-2.498366,-0.071716,9.562537
5927334333,0.001648,-0.001008,-0.000689,-2.277235,-0.077272,9.632657
5937334333,0.001765,-0.001030,-0.000902,-2.013409,-0.060477,9.696244
5947334333,0.001725,-0.001023,-0.001075,-1.803214,-0.075087,9.760348
5957334333,0.001712,-0.001000,-0.001157,-1.516062,-0.073004,9.831089
5967334333,0.001757,-0.000953,-0.001303,-1.261178,-0.051619,9.863265
5977334333,0.001677,-0.000945,-0.001357,-1.075120,-0.060788,9.944514
5987334333,0.001665,-0.000953,-0.001383,-0.814259,-0.016258,9.997295
5997334333,0.001544,-0.000883,-0.001325,-0.607117,-0.008063,10.063872
6007334333,0.001478,-0.000810,-0.001299,-0.287453,0.045951,10.147195
6017334333,0.001393,-0.000776,-0.001195,-0.171120,0.036714,10.158352
6027334333,0.001254,-0.000771,-0.001085,-0.105691,0.050990,10.185922
6037334333,0.001115,-0.000655,-0.000913,-0.044005,0.006308,10.218318
6047334333,0.000962,-0.000579,-0.000760,-0.005383,0.041314,10.269220
6057334333,0.000769,-0.000470,-0.000613,0.054245,0.070273,10.259899
6067334333,0.000585,-0.000370,-0.000444,0.122893,0.064135,10.301201
6077334333,0.000386,-0.000245,-0.000275,0.191709,0.101391,10.334998
6087334333,0.000097,-0.000119,-0.000083,0.251955,0.050212,10.315902
6097334333,-0.000062,0.000015,0.000154,0.290858,0.079806,10.364516
6107334333,-0.000285,0.000111,0.000369,0.365876,0.077851,10.349445
6117334333,-0.000552,0.000257,0.000594,0.421405,0.044255,10.373119
6127334333,-0.000756,0.000452,0.000824,0.439552,0.122997,10.288871
6137334333,-0.000943,0.000503,0.000969,0.423091,0.129035,10.201118
6147334333,-0.001108,0.000620,0.001059,0.429404,0.127731,10.177399
6157334333,-0.001231,0.000633,0.001141,0.437358,0.118589,10.082966
6167334333,-0.001355,0.000661,0.001281,0.402801,0.131109,9.956240
6177334333,-0.001454,0.000736,0.001273,0.430173,0.120702,9.941446
6187334333,-0.001461,0.000687,0.001204,0.430490,0.126697,9.891344
6197334333,-0.001429,0.000668,0.001148,0.425417,0.080251,9.836194
6207334333,-0.001437,0.000553,0.001092,0.434767,0.060925,9.764576
6217334333,-0.001402,0.000451,0.000915,0.396184,0.041656,9.729956
6227334333,-0.001272,0.000415,0.000751,0.456591,-0.008801,9.679556
6237334333,-0.001139,0.000273,0.000599,0.421570,-0.025914,9.636562
6247334333,-0.001091,0.000178,0.000466,0.436475,-0.032038,9.628555
6257334333,-0.000934,0.000120,0.000315,0.390739,-0.028773,9.582129
