# ts(s),tx, ty, tz, qx, qy, qz, qw 
0.0,9.5,-14.700000000000001,4.0,0.004043689963969111,0.0,0.0,0.9999918242523163
0.1037359,9.49854299,-14.69998826,4.00028617,0.006888840135813338,0.005164903331975072,0.0023075244486711476,0.9999602707038281
0.2073381,9.494211739999999,-14.69995367,3.99692674,0.005807479738368814,0.0012293483330354602,-0.0016505278551737106,0.9999810186396357
0.3110752,9.48712046,-14.69989818,4.00388411,0.0024133613159732815,-0.0010247700528231052,0.0029692811685967414,0.999992154420643
0.4146917,9.47745101,-14.699825,4.004491750000001,0.003211245419581246,-0.004007011031318956,0.005458417653600966,0.9999719183267942
0.5184302,9.46544596,-14.699738580000002,4.0,0.0034912011905881427,0.0,0.0,0.9999939057385534
0.6220448,9.45139844,-14.6996444,3.99646055,-0.0004966297056088469,0.004818359208186921,-0.004227056213388217,0.9999793341710844
0.7257977,9.43563915,-14.69954895,3.9970579600000002,0.0001672324167886655,0.0018399654899719617,-0.001738274900516393,0.9999967824751662
0.8294199,9.41851868,-14.69945965,4.0031737099999996,0.004323014985626745,-0.0011339321384927442,0.0004195826100530343,0.9999899247941315
0.9331467,9.40039028,-14.699384649999999,4.00490457,0.0012704728347177519,-0.0006464100985441514,-0.0035193896413370875,0.9999927909486713
1.03691,9.38158638,-14.69933276,4.0,0.0009800022181283498,0.0,0.0,0.999999519797711
1.140497,9.3623963,-14.69931312,3.9984284700000003,0.0059009252491097845,0.0010432056211694385,0.0039403107081990895,0.999974282046673
1.244242,9.34303724,-14.69933513,4.000123530000001,0.002197196066360329,0.001543158029927384,-1.0039660065878796e-05,0.9999963954394764
1.347979,9.31999854,-14.69942825,3.99999231,-0.006493647418627109,-0.001538322070084943,0.0007310238049176636,0.9999774656024043
1.451596,9.290681090000001,-14.69967187,4.00225409,-0.012515690318529825,-0.0010632962431957312,0.0002487457097486778,0.9999210793970301
1.555212,9.2610852,-14.70006787,4.0,-0.007854747347288155,0.0,0.0,0.9999691509962246
1.65896,9.229231140000001,-14.70062764,3.99774591,-0.0028459692765726683,-0.00018188259500818694,-0.0006504316485622202,0.9999957221489845
1.762569,9.20000236,-14.70120159,4.00000769,-0.00680469541784022,0.0003022600190109241,-0.0011341642816210913,0.9999761589310685
1.866302,9.167976750000001,-14.70183601,3.9996448,-0.011397428680558042,-0.00019011711766965425,0.0016397753294526759,0.9999336846070453
1.969923,9.128694359999999,-14.702574219999999,4.0002064100000005,-0.006737871644357495,0.0008002131119061819,0.003623855808546781,0.9999704137692067
2.073666,9.07934181,-14.70341361,4.0,-0.00800236265537342,0.0,0.0,0.9999679805833445
2.177281,9.04424228,-14.703952059999999,4.00026974,-0.00879687516653402,0.002108163043581841,-0.0028167434645410224,0.9999551172888416
2.281017,9.00762215,-14.70446794,4.00082623,-0.004272743954429621,0.0030827497058804284,-0.0008285680634957211,0.9999857767930078
2.384639,8.96489828,-14.70501829,3.99998462,-0.010040548357073138,-0.0036945094781747293,-0.0001583682520234053,0.9999427548154453
2.48825,8.91500786,-14.705601099999999,4.00450818,-0.012431968272587744,-0.005745444309229806,-0.0030869981552461424,0.9999014483822635
2.591988,8.856738739999999,-14.706213600000002,4.0,-0.004977222144240497,0.0,0.0,0.9999876135531514
2.695832,8.78871722,-14.706852060000001,3.99263492,-0.0016842505600909872,0.0007216261967079832,0.0006639474060205963,0.9999981008629593
2.799367,8.74428943,-14.70723166,3.99718918,-0.0043355210071829,-0.0012498058166826064,-0.0022654695951104054,0.9999872543640396
2.903084,8.69736742,-14.70760493,4.00142079,-0.003315833091786279,0.000847420678748486,0.003582183158561802,0.9999877274711523
3.006768,8.645486550000001,-14.7079884,3.99917436,-0.004536465884568003,-0.003071047293655155,0.007092078895476879,0.9999598449751563
3.110441,8.58815234,-14.70838053,4.0,-0.003286815582622188,0.0,0.0,0.9999945984070743
3.214057,8.52482502,-14.708779730000002,3.9989210500000003,0.0016648866579702076,0.003937604903187984,-0.002085270169968718,0.9999886874701938
3.317669,8.45492002,-14.70918402,3.9966950700000003,0.0004142355631127786,-1.3875127745205129e-05,0.0013476673949629236,0.9999990060039918
3.421285,8.377803199999999,-14.70959118,4.0035368,-0.005197249228726091,0.001212735995537325,-0.00266811399233833,0.9999821993613603
3.524925,8.29279328,-14.709998650000001,4.00244407,-0.004015542404775989,0.003190948327497677,-0.00566426616587855,0.9999708042521884
3.628545,8.22294744,-14.7103048,4.0,-0.00210574691296766,0.0,0.0,0.9999977829125115
3.732256,8.16200344,-14.710552909999999,4.0032697200000005,-0.0019434026468177167,-0.004863192655110688,0.006491776318417469,0.9999652140867619
3.835871,8.09668785,-14.71080084,4.00211597,-0.0008096598164629207,-0.0028680751397087284,0.003486168565685307,0.9999894825570448
3.939488,8.026710399999999,-14.71104752,3.9974206,-0.003238224725792652,0.0016470251403302397,-0.003287056430377224,0.999987998162396
4.043107,7.95176918,-14.711291750000001,3.9940000400000004,-0.0045859125361951275,-0.0022962102071020845,-0.005280756717916869,0.9999729048496171
4.146888,7.87154037,-14.711532259999998,4.0,-0.0014351139381291,0.0,0.0,0.9999989702234621
4.25046,7.7856840400000005,-14.711767640000001,4.00028617,0.0017276149096216683,0.008088686407935898,0.0003188803333294254,0.9999657428203484
4.354202,7.69383795,-14.7119964,3.99692663,0.00034543935065088464,0.0040980474669214265,-0.0016494752499233297,0.9999901829068192
4.45794,7.59562428,-14.71221691,4.00469537,-0.001900670222092396,-0.0033846140196937633,0.0026681730846294252,0.9999889062849823
4.561559,7.49064524,-14.71242743,4.00926967,0.000169566619672356,-0.003920915590660774,0.005650699335500874,0.9999763333525011
4.665293,7.384886000000001,-14.71261542,4.0,-0.0008348519707737937,0.0,0.0,0.9999996515110328
4.768912,7.30611007,-14.71274093,3.99406337,-0.005213192318499374,-0.001095791460366693,-0.005645848803761574,0.9999698726752776
4.872532,7.2232317,-14.71286047,3.99860208,-0.003139585268735374,-0.0015516528110104146,-0.0026569130614863784,0.9999903380487624
4.976146,7.136058070000001,-14.712973210000001,4.00000764,0.0006406598920632215,0.0014403478462348596,0.0027637848700265196,0.9999949382102776
5.079909,7.0443876,-14.71307824,3.99774591,-0.0032210844708350198,0.0004909147604542237,0.0062455788188999104,0.9999751878735524
5.183503,6.9480131400000005,-14.713174610000001,4.0,-0.0004641441179640342,0.0,0.0,0.9999998922851131
5.287117,6.8467131,-14.71326133,4.00177794,0.0010493579955811081,-0.0004686518260379724,-0.002092363817016576,0.9999971506094006
5.390861,6.7402616,-14.71333733,3.9995213,-0.002803798667845802,-0.001438321016293345,0.0013517069067214649,0.9999941213997823
5.494473,6.628423430000001,-14.71340152,4.0004787,0.0038414306649948455,0.002155394250921647,-0.001440483157805384,0.9999892612895106
5.598233,6.5109515799999995,-14.713452720000001,3.9982220600000002,0.007912052000389027,0.004628312194321875,0.0015328461123941186,0.9999568133385416
5.701829,6.38759221,-14.71348971,4.0,-0.00011653563389189164,0.0,0.0,0.999999993209723
5.805571,6.258079830000001,-14.713511200000001,4.00511099,-0.00188095596374189,-0.004236309505214463,-0.00605890371453071,0.999970902262769
5.909185,6.122137340000001,-14.71351584,4.00281875,0.002089303952756724,-0.0017323589722829055,-0.0030764515248755966,0.9999915845582898
6.012921,6.01495601,-14.71350731,3.9972971100000003,-0.0032131777626139084,0.0015460999964914948,0.002966787159122795,0.9999892415608377
6.116541,5.91026938,-14.713489130000001,3.99557157,-0.00516518694986373,0.0030617568764522915,0.005455570318790375,0.9999670910790509
6.220278,5.80144808,-14.71346041,4.0,0.0001542958319103333,0.0,0.0,0.999999988096398
6.323895,5.68834221,-14.713420410000001,4.00347613,8.763833160226625e-05,0.0002908752209280042,-0.002562673235425985,0.9999966702029647
6.427659,5.57080487,-14.713368410000001,4.001760760000001,-0.001818995335279933,0.0017519169576110131,-9.755641304036826e-05,0.999996806257745
6.531383,5.44867949,-14.71330363,3.99916609,0.002452019252376834,-0.0017493443881794412,-0.0011229387575445336,0.9999948331888241
6.634992,5.32180616,-14.71322525,4.00198435,0.0010379157483264526,-0.0002857976524679687,-0.004585332219438672,0.9999889078280011
6.738741,5.1900189899999996,-14.713132450000002,4.0,0.0003734306380775283,0.0,0.0,0.9999999302747768
6.84235,5.05314962,-14.713024350000001,3.9980156499999997,0.0030284317593127674,-0.0022100194982507277,0.0025006987556632733,0.999989845408757
6.945963,4.91101981,-14.712900059999999,4.00083391,0.0015841698059876155,-0.0007130446568314858,-0.0009377521234918345,0.9999980512952504
7.049705,4.76345379,-14.71275866,3.99847095,-0.0010281454102237513,0.0008177078771578924,0.0021488001108250967,0.9999968284594339
7.153323,4.61026133,-14.71259915,3.9978889900000003,-0.0044464701664621116,0.0028187351091653857,0.004627791509606619,0.9999754332888319
7.256934,4.45125123,-14.712420569999999,4.0,0.0005817705667498788,0.0,0.0,0.9999998307714895
7.360549,4.28622995,-14.71222185,4.00258716,0.0023037592091326134,-0.004041488534224284,-0.0013253906995879619,0.999988301133282
7.464167,4.154419470000001,-14.712053780000002,4.00200011,-0.0011082141065517973,-0.002047508811758855,0.0011410547992034609,0.9999966387759036
7.567786,4.02353006,-14.711879,3.9976523200000003,0.0030456690875273807,0.0008423422514818973,-0.0022481736372623067,0.9999924800090435
7.671396,3.88856079,-14.711690840000001,3.99536516,0.002625271712530097,-0.003089397826412002,-0.0052440256594974985,0.9999780316408897
7.775144,3.74939589,-14.711488710000001,4.0,0.0007407176668123556,0.0,0.0,0.9999997256686314
7.878754,3.6059226100000004,-14.71127198,3.9989210500000003,0.0026455297054719293,0.007662113326368846,0.004424823793737243,0.9999573561539242
7.982493,3.4580168099999997,-14.71104004,3.99669492,0.0021378572447288426,0.003683330017649156,0.0014364699764929172,0.9999898995491848
8.086111,3.3055635999999997,-14.710792249999999,4.00457951,0.0004064260079123746,-0.002472617673213999,-0.0016317814086761425,0.9999955291245938
8.189849,3.1484386200000003,-14.71052792,4.008587110000001,0.004376664213594389,-0.0005014825184093324,-0.005598449384600754,0.9999746250231217
8.29347,2.9865073300000002,-14.710246380000001,4.0,0.0008832848396401998,0.0,0.0,0.9999996099038699
8.397102,2.81964907,-14.709946930000001,3.99712668,-0.005932832617681167,-0.00027912686839800534,0.004351358038082791,0.9999728942669128
8.500847,2.6477241400000002,-14.70962884,4.00107326,-0.0019244726272689998,0.0016517470277709798,0.0003944499845153493,0.999996706267612
8.604438,2.470598,-14.70929137,3.9986950300000004,0.0025143944578383914,-0.0027645608993707967,0.0006062737905445086,0.9999928337021396
8.708175,2.2881324100000002,-14.708933750000002,4.0015082,8.278528447773416e-05,-0.006247340674069782,0.0016062079711675454,0.9999791917720348
8.811795,2.1001811200000002,-14.70855521,4.0,0.0010204327500239695,0.0,0.0,0.9999994793583658
8.915403,1.9066004300000001,-14.70815492,3.99325416,0.0006794482131217454,0.0066648343641122244,-0.0032641893328454992,0.9999722313149622
9.019162,1.7286306200000001,-14.70777795,3.99612327,-0.0017192935701572454,0.003170329747298894,-0.002262861839400317,0.9999909362065281
9.12289,1.57102601,-14.70743718,4.00399259,0.004070321575692549,-0.0026779267758577363,0.0022465362469219485,0.9999856070290936
9.226512,1.4094269499999998,-14.707081220000001,4.0074284,0.002636562358013908,-0.0036931032663745354,0.003259142327375216,0.9999843936374638
9.330247,1.24374449,-14.70670958,4.0,0.0011315577991128226,0.0,0.0,0.9999993597882687
9.433986,1.07388642,-14.706321760000002,3.9949523399999998,0.003359218754307361,-0.0021247265654183523,-0.002445016828911689,0.9999891114802646
9.537749,0.89976511,-14.705917240000002,3.99836273,0.0018902373897355987,-0.0030836151996856535,-0.0014411429688609076,0.9999924206847041
9.641587,0.72127928,-14.70549549,4.0000152700000005,-2.4356105871732017e-05,0.0035919795631786373,0.0011319720011612208,0.9999929078393439
9.745342,0.5383378900000001,-14.70505598,3.99549182,-0.003966273998530365,0.005113603660832049,0.0006306439093832134,0.9999788607847808
9.849229,0.35084142,-14.704598160000002,4.0,0.0012306051650397077,0.0,0.0,0.9999992428051773
9.953059,0.15868961,-14.70412147,4.006888930000001,0.0030986930301259725,-0.004285648177900802,0.001828880819767469,0.999984343135505
10.05693,-0.038219180000000005,-14.703625340000002,4.00234005,-0.0008029651246319113,-0.00276861585110531,0.0013364596477786273,0.9999949519317023
10.16083,-0.23998815,-14.703109179999998,3.9978916700000005,0.00395967686499745,0.0022715453870164803,-0.00183068629358532,0.9999879047410394
10.26466,-0.44672618999999997,-14.70257238,3.99447619,0.0030187830255990035,0.0013163757711576313,-0.004816485616117098,0.9999829776402113
10.36867,-0.6585398600000001,-14.702014329999999,4.0,0.0013267465482525366,0.0,0.0,0.999999119871411
10.47264,-0.87553325,-14.70143442,4.00314306,0.003367681506387936,-6.883198972088154e-05,0.003989184006145826,0.9999863701043098
10.57663,-1.09782421,-14.700832,3.99975301,0.002387551453114524,-0.0010333405424666506,0.001015104526311446,0.9999961006764889
10.68062,-1.3255274000000001,-14.700206430000001,4.000594560000001,0.0012687360642856273,0.001637409885882892,0.00019753623815975394,0.9999978350862063
10.78461,-1.52312077,-14.699649970000001,3.9989046200000002,0.004803433925220174,0.0036139391530083426,0.003175676323113273,0.9999768905060833
10.88875,-1.7084310400000002,-14.69909396,4.0,0.0015460818486349524,0.0,0.0,0.9999988048147445
10.99272,-1.8982429500000002,-14.698489890000001,4.00395228,-0.0017021808829749156,-0.00404494706125763,-0.0002428393693908414,0.9999903409596284
11.09659,-2.09261188,-14.69783733,4.00223183,0.0018302922733229134,-0.0020536833971656694,0.0026781508111242895,0.9999926299343067
11.20057,-2.2915794600000003,-14.697135699999999,3.9976523200000003,0.0007760625884554378,0.001040566652358133,-0.003691964288150216,0.9999923421444766
11.30431,-2.49519522,-14.696384530000001,3.99536516,-0.00012734320241554673,-0.001912642692917851,-0.005706423450142627,0.9999818809923736
11.40818,-2.7035033,-14.69558343,4.0,0.001961059417226218,0.0,0.0,0.9999980771211323
11.51192,-2.91655173,-14.69473185,3.9998733499999997,0.0015785664668574054,0.0043998444613390815,0.0032204990698300163,0.9999838888113983
11.61553,-3.13438268,-14.69382948,3.9976370400000003,0.0006663463095165581,0.0014279706432165154,0.0012273993261224332,0.9999980051846765
11.71927,-3.35704253,-14.692875879999999,4.0030581000000005,0.00412474339715742,-0.0015249105519234704,-0.0012327473417404029,0.9999895706824686
11.82277,-3.58456672,-14.691870750000001,4.004222009999999,0.005706549757046476,-0.004982206484515935,-0.003242006999314313,0.9999660505732344
11.92638,-3.81701455,-14.690813680000002,4.0,0.0023052811940725967,0.0,0.0,0.9999973428357779
12.03,-4.05440919,-14.689704460000002,3.99530184,-0.002325781443667505,0.00209553806482458,0.0015466649409646412,0.9999939036256449
12.13361,-4.29679298,-14.68854284,3.99647084,-0.0007546750797126885,-0.0013478745954396756,-0.0004167524965925479,0.9999987200076587
12.2371,-4.54421256,-14.68732849,4.00271816,0.005260875739338291,0.001845658730049883,0.0014383436728362948,0.9999834238115081
12.3406,-4.79670286,-14.686061259999999,3.9999202400000002,0.004853111195286764,0.0008649160318024506,0.004409144391882647,0.9999781290996896
12.44411,-5.05429224,-14.68474105,4.0,0.0025884251100698774,0.0,0.0,0.9999966500221136
12.54767,-5.31702453,-14.68336764,4.002460500000001,0.001150335685163665,0.004101629565405165,-0.0014914715413487524,0.9999898143858071
12.65107,-5.57430684,-14.68199799,3.99963716,0.0007347731285419901,0.0030787061208523417,0.0014510043417156743,0.9999939381133625
12.75469,-5.796775770000001,-14.680795100000001,4.00175313,0.005288822757731624,-0.0021553055916649112,-0.0027742885310871423,0.9999798429642419
12.85806,-6.02304803,-14.67955485,4.00573022,0.007806291329459223,0.0013096493037133758,-0.006237081242197401,0.9999492214367482
12.96167,-6.25313338,-14.67827726,4.0,0.0027937187196165375,0.0,0.0,0.9999960975602433
13.0652,-6.4870754,-14.67696212,3.99855512,0.0031350652863722205,-0.005438343853702693,0.007060849047537723,0.9999553691002949
13.16877,-6.7248826799999994,-14.67560941,4.00248645,0.005636251664493767,-0.0019610971591838885,0.003573960326590368,0.9999758064936825
13.27235,-6.96657975,-14.67421909,3.99635498,-0.0011114185875500593,0.0020382165048474727,-0.0034861339965704765,0.9999912286075117
13.37588,-7.21219707,-14.67279108,3.99461928,-0.004610465299949853,0.005981864634768635,-0.006509841788258083,0.9999502901970183
13.4795,-7.46174631,-14.6713254,4.0,0.0029510420492215414,0.0,0.0,0.9999956456659318
13.58311,-7.7152445300000005,-14.66982207,4.005856870000001,0.005899670484351232,-0.008090592480854739,0.00020197604301265017,0.9999498464458921
13.68672,-7.972725420000001,-14.668281,4.00411608,0.002491095971373145,-0.0040908453834873435,-0.002692053693498524,0.9999849060219965
13.79034,-8.23419935,-14.666702410000001,3.99530463,0.005083255355489753,0.004084826454699057,0.002500486843437794,0.9999756108392702
13.89395,-8.49968489,-14.66508628,3.9907303300000003,0.00905544863226934,0.00810194984559838,-0.0013675672351175022,0.9999252407148372
13.99767,-8.76919729,-14.66343275,4.0,0.003079183540350247,0.0,0.0,0.9999952593031253
14.1013,-9.04275506,-14.66174187,4.00926967,0.0003702337116339934,-0.006014630486208968,0.0072556694652476765,0.9999555202146363
14.20492,-9.32037661,-14.66001387,4.00469537,0.004362505481265959,-0.0020563911237421093,0.0032660480024665223,0.999983036222074
14.30854,-9.60206564,-14.65824886,3.9958839200000003,0.0003773237954796625,0.0011329996251053147,-0.002263720916541283,0.9999967247477437
14.41227,-9.88784592,-14.656447069999999,3.99414313,-0.00308615376213669,0.000646891379841527,-0.001303894871560182,0.9999941785053866
14.51589,-10.177739950000001,-14.65460856,4.0,0.0031797750991641115,0.0,0.0,0.9999949445023804
14.61968,-10.47173534,-14.65273381,4.00157153,0.007781523994666301,-0.002313311920960192,3.726539512179813e-05,0.9999670469988334
14.72326,-10.7461879,-14.65097504,3.9998765100000004,0.00432714481929735,-0.00278078073670214,0.0010189567119037691,0.9999862523072137
14.82686,-11.00926078,-14.649281860000002,3.99966007,0.002707512426180277,0.002478396687871389,-0.0019340402366769707,0.9999913931703026
14.93048,-11.275684940000001,-14.64756036,3.99569823,0.0022227338284646686,0.0005380872459210402,-0.005414868161811716,0.9999827244103937
15.0341,-11.54549372,-14.645810590000002,4.0,0.0032483225514686686,0.0,0.0,0.9999947241863837
15.13784,-11.81868182,-14.64403274,4.00287332,0.0005288472846093139,-0.0005277407966733667,0.0033381708507927814,0.9999941491956701
15.24145,-12.09525372,-14.642227160000001,3.99892674,8.205164232853471e-05,-0.0024732679936350387,-0.00011471293796587078,0.9999969315222429
15.34508,-12.375225539999999,-14.64039399,4.00107326,0.006669716539324582,0.003682846784040314,0.0005434166819213585,0.999970827684068
15.44881,-12.658593530000001,-14.63853356,3.99712668,0.007199052424124549,0.0076804041462617415,-0.0009005186708080055,0.9999441854936046
15.55255,-12.9453794,-14.63664598,4.0,0.0032945997089395152,0.0,0.0,0.9999945727916516
15.65617,-13.23557513,-14.63473176,4.008587110000001,0.00476134492107247,-0.00727250894395559,0.0029986922222281125,0.9999577231329126
15.7599,-13.52918981,-14.632791050000002,4.00457951,0.005256910814768602,-0.0032834540041285247,0.0015191567912539213,0.9999796377832562
15.86364,-13.82622723,-14.6308243,3.99553635,0.0004444378335344741,0.003174893797674739,-0.0015349873419522881,0.9999936831491717
15.96739,-14.12668152,-14.6288318,3.99209545,-0.0035448714703398263,0.006651815078994568,-0.0030569236181393184,0.9999669206830827
16.07102,-14.43056937,-14.62681392,4.0,0.003321948868652302,0.0,0.0,0.9999944823126345
16.17474,-14.7378811,-14.6247711,4.0074284,0.010167075788654438,-0.004586179624073323,7.823243407367318e-05,0.9999377937682171
